# entry-subent-pointer  : 13774-003-0 
# EXFOR reaction        : (28-NI-59(N,TOT),,SIG) 
# incident energy       : 2.4282e-07 MeV - 1.5476e-02 MeV 
# target                : Ni-59 
# product               : - 
# level energy          : - 
# MF-MT number          : 3 - 1 
# first author          : Raman 
# institute             : (1USAORL): Oak Ridge National Laboratory, Oak Ridge, TN 
# reference             : (P,ORNL-5025,110,197505) 
# year                  : 1975 
# facility              : (LINAC): Linear accelerator 
# git                   : https://github.com/IAEA-NDS/exfor_master/blob/main/exforall/137/13774.x4 
# nds                   : https://nds.iaea.org/EXFOR/13774
#
#       E_in(MeV)         dE_in(MeV)        XS(B)             dXS(B)
        1.5476E-02        0.0000E+00        1.4198E+01        6.7964E+00
        1.4741E-02        0.0000E+00        2.8981E+01        6.8441E+00
        1.4058E-02        0.0000E+00        1.0091E+01        6.8736E+00
        1.3420E-02        0.0000E+00        5.7038E+00        6.9227E+00
        1.2825E-02        0.0000E+00        6.0272E+00        6.9918E+00
        1.2269E-02        0.0000E+00        2.0079E+01        7.0277E+00
        1.1748E-02        0.0000E+00        2.7247E+01        7.0541E+00
        1.1260E-02        0.0000E+00        9.2246E+00        7.0443E+00
        1.0802E-02        0.0000E+00        2.4191E+00        7.0372E+00
        1.0371E-02        0.0000E+00        1.3407E+01        7.0555E+00
        9.9648E-03        0.0000E+00        8.9706E+00        7.0788E+00
        9.5824E-03        0.0000E+00        1.6108E+01        7.0860E+00
        9.2216E-03        0.0000E+00        5.9462E+01        7.2812E+00
        8.8808E-03        0.0000E+00        1.1185E+01        7.2109E+00
        8.5585E-03        0.0000E+00        1.6355E+00        7.2456E+00
        8.2535E-03        0.0000E+00        1.4817E+01        7.3243E+00
        7.9645E-03        0.0000E+00        9.7250E+00        7.3459E+00
        7.6904E-03        0.0000E+00        2.7927E+01        7.3173E+00
        7.4302E-03        0.0000E+00        1.9571E+01        7.3744E+00
        7.1830E-03        0.0000E+00        1.7769E+01        7.4152E+00
        6.9480E-03        0.0000E+00        3.3361E+01        7.4813E+00
        6.7243E-03        0.0000E+00        4.0144E+01        7.5145E+00
        6.5112E-03        0.0000E+00        8.2218E+01        7.6784E+00
        6.3081E-03        0.0000E+00        1.9077E+02        7.8735E+00
        6.1144E-03        0.0000E+00        1.0353E+02        7.6970E+00
        5.9294E-03        0.0000E+00        2.4189E+01        8.2844E+00
        5.7527E-03        0.0000E+00        3.1129E+01        7.6962E+00
        5.5838E-03        0.0000E+00        9.2266E+00        7.6617E+00
        5.4222E-03        0.0000E+00       -2.3046E+00        7.7482E+00
        5.2676E-03        0.0000E+00        1.5153E+01        7.7253E+00
        5.1194E-03        0.0000E+00        2.4336E+01        7.7478E+00
        4.9774E-03        0.0000E+00        2.2357E+01        7.7837E+00
        4.8413E-03        0.0000E+00        2.3236E+01        7.8410E+00
        4.7106E-03        0.0000E+00        9.5815E+00        7.8615E+00
        4.5852E-03        0.0000E+00        3.3007E+01        7.9608E+00
        4.4647E-03        0.0000E+00        2.9263E+01        7.9543E+00
        4.3490E-03        0.0000E+00        8.7327E+01        8.0581E+00
        4.2376E-03        0.0000E+00        1.7659E+02        8.3277E+00
        4.1305E-03        0.0000E+00        1.1088E+02        8.1079E+00
        4.0274E-03        0.0000E+00        3.6235E+01        8.0315E+00
        3.9281E-03        0.0000E+00        2.8047E+01        8.0274E+00
        3.8324E-03        0.0000E+00        9.4150E+00        8.0464E+00
        3.7402E-03        0.0000E+00        4.4485E+00        8.0434E+00
        3.6513E-03        0.0000E+00        2.1566E+01        8.0466E+00
        3.5655E-03        0.0000E+00       -7.9503E-01        8.0664E+00
        3.4826E-03        0.0000E+00       -4.2181E-01        8.1268E+00
        3.4027E-03        0.0000E+00        1.3995E+01        8.1068E+00
        3.3255E-03        0.0000E+00        9.9334E+00        8.2410E+00
        3.2508E-03        0.0000E+00        4.0213E+01        8.2065E+00
        3.1787E-03        0.0000E+00        7.6963E+01        8.5341E+00
        3.1089E-03        0.0000E+00        1.1270E+01        8.1705E+00
        3.0414E-03        0.0000E+00        6.4555E+00        8.2463E+00
        2.9761E-03        0.0000E+00        6.9417E-01        8.1723E+00
        2.9128E-03        0.0000E+00        4.2411E+00        8.1705E+00
        2.8516E-03        0.0000E+00       -1.7434E+00        8.1609E+00
        2.7923E-03        0.0000E+00        1.1784E+01        8.1953E+00
        2.7348E-03        0.0000E+00        2.0282E+01        8.2399E+00
        2.6790E-03        0.0000E+00        1.2624E+01        8.5510E+00
        2.6249E-03        0.0000E+00       -7.8303E+00        8.3485E+00
        2.5725E-03        0.0000E+00       -3.4397E+00        8.5304E+00
        2.5216E-03        0.0000E+00       -1.9519E+01        8.4327E+00
        2.4722E-03        0.0000E+00       -5.5580E+00        8.5940E+00
        2.4243E-03        0.0000E+00       -1.5807E+01        8.4451E+00
        2.3777E-03        0.0000E+00       -4.3698E+00        8.6136E+00
        2.3325E-03        0.0000E+00       -1.6930E-01        8.5293E+00
        2.2885E-03        0.0000E+00       -1.2629E+01        8.4913E+00
        2.2458E-03        0.0000E+00       -5.6271E+00        8.4984E+00
        2.2042E-03        0.0000E+00        9.4810E+00        8.5047E+00
        2.1638E-03        0.0000E+00       -6.4231E+00        8.5552E+00
        2.1245E-03        0.0000E+00       -2.8742E+00        8.6017E+00
        2.0863E-03        0.0000E+00       -1.1725E+01        8.7509E+00
        2.0491E-03        0.0000E+00        7.0132E+00        8.9492E+00
        2.0129E-03        0.0000E+00       -8.0544E+00        8.6542E+00
        1.9776E-03        0.0000E+00       -1.3622E+01        8.6070E+00
        1.9432E-03        0.0000E+00        8.8764E+00        8.6590E+00
        1.9097E-03        0.0000E+00       -3.4769E+00        8.7029E+00
        1.8771E-03        0.0000E+00        1.6903E+01        8.6367E+00
        1.8453E-03        0.0000E+00        2.4813E+01        8.6736E+00
        1.8144E-03        0.0000E+00        9.8763E+00        8.7211E+00
        1.7842E-03        0.0000E+00        1.5491E+01        8.7081E+00
        1.7547E-03        0.0000E+00        1.0734E+01        8.7399E+00
        1.7260E-03        0.0000E+00        2.0124E+01        8.7521E+00
        1.6445E-03        0.0000E+00        1.4548E+01        3.9678E+00
        1.5200E-03        0.0000E+00        1.0906E+01        3.9642E+00
        1.4092E-03        0.0000E+00        1.0964E+01        4.1029E+00
        1.3100E-03        0.0000E+00        1.2430E+01        3.9967E+00
        1.2210E-03        0.0000E+00        1.2043E+01        4.0350E+00
        1.1407E-03        0.0000E+00        1.2950E+01        4.1556E+00
        1.0681E-03        0.0000E+00        1.1116E+01        4.1699E+00
        1.0022E-03        0.0000E+00        1.3099E+01        4.1566E+00
        9.4223E-04        0.0000E+00        8.5048E+00        4.2005E+00
        8.8749E-04        0.0000E+00        1.4743E+01        4.2786E+00
        8.3738E-04        0.0000E+00        1.1434E+01        4.2863E+00
        7.9140E-04        0.0000E+00        1.7795E+01        4.3353E+00
        7.4910E-04        0.0000E+00        1.7143E+01        4.4826E+00
        7.1011E-04        0.0000E+00        1.5964E+01        4.3366E+00
        6.7408E-04        0.0000E+00        4.0763E+00        4.4884E+00
        6.4073E-04        0.0000E+00        7.0388E+00        4.4056E+00
        6.0980E-04        0.0000E+00        5.4013E+00        4.4205E+00
        5.8105E-04        0.0000E+00        9.9309E+00        4.4703E+00
        5.5429E-04        0.0000E+00        1.4564E+01        4.4878E+00
        5.2933E-04        0.0000E+00        1.4368E+01        4.5082E+00
        5.0602E-04        0.0000E+00        1.2018E+01        4.5353E+00
        4.8422E-04        0.0000E+00        8.2159E+00        4.5501E+00
        4.6380E-04        0.0000E+00        7.7315E+00        4.5907E+00
        4.4465E-04        0.0000E+00        1.8146E+01        4.6758E+00
        4.2665E-04        0.0000E+00        9.9441E+00        4.6520E+00
        4.0973E-04        0.0000E+00        1.1930E+01        4.7518E+00
        4.0002E-04        0.0000E+00        2.6427E+01        1.0741E+01
        3.9687E-04        0.0000E+00        4.5392E+00        1.1534E+01
        3.9376E-04        0.0000E+00        2.4095E+01        2.0288E+01
        3.9068E-04        0.0000E+00        1.4804E+01        1.3005E+01
        3.8764E-04        0.0000E+00        4.5160E+00        1.0847E+01
        3.8464E-04        0.0000E+00        4.0171E+01        1.0495E+01
        3.8167E-04        0.0000E+00        5.0108E+00        1.0466E+01
        3.7874E-04        0.0000E+00        5.2438E+00        1.0519E+01
        3.7583E-04        0.0000E+00        1.6642E+01        1.0547E+01
        3.7297E-04        0.0000E+00        1.7358E+01        1.0574E+01
        3.7013E-04        0.0000E+00        4.8373E+01        1.0601E+01
        3.6733E-04        0.0000E+00       -1.3788E+01        1.0603E+01
        3.6456E-04        0.0000E+00        2.0428E+01        1.0555E+01
        3.6182E-04        0.0000E+00       -1.5234E+00        1.0593E+01
        3.5911E-04        0.0000E+00        3.3222E+01        1.0599E+01
        3.5643E-04        0.0000E+00        8.6409E+01        1.0794E+01
        3.5378E-04        0.0000E+00        1.1039E+01        1.0662E+01
        3.5116E-04        0.0000E+00       -3.5027E+01        1.0818E+01
        3.4857E-04        0.0000E+00        1.6066E+01        1.0684E+01
        3.4601E-04        0.0000E+00        2.5721E+01        1.0684E+01
        3.4348E-04        0.0000E+00        2.0864E+01        1.0714E+01
        3.4097E-04        0.0000E+00        1.9960E+01        1.0769E+01
        3.3849E-04        0.0000E+00        1.9054E+01        1.0775E+01
        3.3604E-04        0.0000E+00       -1.2645E+00        1.0832E+01
        3.3361E-04        0.0000E+00        4.5712E+01        1.0825E+01
        3.3121E-04        0.0000E+00        2.5995E+01        1.0738E+01
        3.2884E-04        0.0000E+00        2.9126E+01        1.0748E+01
        3.2649E-04        0.0000E+00        2.7185E+01        1.0761E+01
        3.2417E-04        0.0000E+00        1.9375E+01        1.0751E+01
        3.2187E-04        0.0000E+00        2.5428E+01        1.0778E+01
        3.1960E-04        0.0000E+00       -3.0295E+00        1.0894E+01
        3.1735E-04        0.0000E+00        2.2501E+00        1.0771E+01
        3.1512E-04        0.0000E+00       -8.2695E+00        1.0915E+01
        3.1292E-04        0.0000E+00        7.2915E+01        1.0948E+01
        3.1074E-04        0.0000E+00        1.0926E+01        1.1028E+01
        3.0858E-04        0.0000E+00        3.1190E+01        1.0812E+01
        3.0645E-04        0.0000E+00        4.1622E+01        1.0840E+01
        3.0434E-04        0.0000E+00        1.8814E+01        1.0838E+01
        3.0224E-04        0.0000E+00        3.0961E+01        1.0825E+01
        3.0018E-04        0.0000E+00        3.0186E+01        1.0825E+01
        2.9813E-04        0.0000E+00        3.0635E+01        1.0811E+01
        2.9610E-04        0.0000E+00        1.1317E+01        1.0917E+01
        2.9409E-04        0.0000E+00        4.2162E+01        1.0899E+01
        2.9211E-04        0.0000E+00        4.1948E+01        1.0953E+01
        2.9014E-04        0.0000E+00        2.6746E+01        1.0972E+01
        2.8819E-04        0.0000E+00        3.1651E+01        1.0947E+01
        2.8627E-04        0.0000E+00        4.2221E+01        1.0919E+01
        2.8436E-04        0.0000E+00        5.5165E+01        1.0960E+01
        2.8247E-04        0.0000E+00        3.7173E+01        1.0925E+01
        2.8060E-04        0.0000E+00        3.1428E+01        1.1029E+01
        2.7875E-04        0.0000E+00        1.9392E+01        1.0981E+01
        2.7692E-04        0.0000E+00        4.4241E+01        1.1160E+01
        2.7510E-04        0.0000E+00        5.5879E+01        1.1139E+01
        2.7330E-04        0.0000E+00        5.9534E+01        1.1091E+01
        2.7152E-04        0.0000E+00        2.8249E+01        1.1106E+01
        2.6976E-04        0.0000E+00        5.9423E+01        1.1357E+01
        2.6802E-04        0.0000E+00        6.0202E+01        1.1150E+01
        2.6629E-04        0.0000E+00        5.5387E+01        1.1092E+01
        2.6458E-04        0.0000E+00        5.8593E+01        1.1089E+01
        2.6288E-04        0.0000E+00        6.4093E+01        1.1233E+01
        2.6120E-04        0.0000E+00        5.4536E+01        1.1495E+01
        2.5954E-04        0.0000E+00        5.9504E+01        1.1190E+01
        2.5626E-04        0.0000E+00        7.3175E+01        6.4710E+00
        2.5225E-04        0.0000E+00        7.0398E+01        7.9249E+00
        2.4911E-04        0.0000E+00        9.4240E+01        7.9844E+00
        2.4602E-04        0.0000E+00        9.3664E+01        8.0272E+00
        2.4300E-04        0.0000E+00        1.1267E+02        8.0559E+00
        2.4002E-04        0.0000E+00        1.3866E+02        8.0871E+00
        2.3711E-04        0.0000E+00        1.6211E+02        8.1691E+00
        2.3424E-04        0.0000E+00        1.8618E+02        8.8118E+00
        2.3143E-04        0.0000E+00        2.0797E+02        8.4369E+00
        2.2867E-04        0.0000E+00        2.4424E+02        8.5192E+00
        2.2595E-04        0.0000E+00        2.9971E+02        9.2041E+00
        2.2329E-04        0.0000E+00        3.5671E+02        8.6666E+00
        2.2067E-04        0.0000E+00        4.9487E+02        8.8942E+00
        2.1810E-04        0.0000E+00        6.2731E+02        9.2619E+00
        2.1557E-04        0.0000E+00        8.3380E+02        1.0201E+01
        2.1309E-04        0.0000E+00        1.1285E+03        1.0822E+01
        2.1065E-04        0.0000E+00        1.5830E+03        1.2628E+01
        2.0825E-04        0.0000E+00        2.2077E+03        1.5952E+01
        2.0589E-04        0.0000E+00        2.8799E+03        2.0751E+01
        2.0357E-04        0.0000E+00        3.1111E+03        2.2813E+01
        2.0129E-04        0.0000E+00        2.7140E+03        1.9389E+01
        1.9905E-04        0.0000E+00        2.0664E+03        1.5144E+01
        1.9684E-04        0.0000E+00        1.4845E+03        1.2366E+01
        1.9467E-04        0.0000E+00        1.0910E+03        1.1099E+01
        1.9254E-04        0.0000E+00        8.0356E+02        1.0584E+01
        1.9044E-04        0.0000E+00        6.1592E+02        9.4549E+00
        1.8838E-04        0.0000E+00        4.8475E+02        9.1408E+00
        1.8635E-04        0.0000E+00        3.8160E+02        8.8969E+00
        1.8435E-04        0.0000E+00        3.0690E+02        8.7603E+00
        1.8238E-04        0.0000E+00        2.5090E+02        8.6674E+00
        1.8045E-04        0.0000E+00        2.1480E+02        8.6132E+00
        1.7855E-04        0.0000E+00        1.9704E+02        8.5323E+00
        1.7667E-04        0.0000E+00        1.7313E+02        8.5033E+00
        1.7483E-04        0.0000E+00        1.4331E+02        8.5016E+00
        1.7301E-04        0.0000E+00        1.3649E+02        8.4775E+00
        1.7122E-04        0.0000E+00        1.1761E+02        8.4429E+00
        1.6946E-04        0.0000E+00        9.6970E+01        8.4722E+00
        1.6355E-04        0.0000E+00        7.8164E+01        3.5642E+00
        1.5405E-04        0.0000E+00        5.2876E+01        3.4531E+00
        1.4535E-04        0.0000E+00        4.0434E+01        3.4712E+00
        1.3737E-04        0.0000E+00        2.9184E+01        3.5273E+00
        1.3003E-04        0.0000E+00        2.9523E+01        3.5349E+00
        1.2326E-04        0.0000E+00        2.9126E+01        4.2842E+00
        1.1701E-04        0.0000E+00        2.1591E+01        3.6625E+00
        1.1122E-04        0.0000E+00        1.4562E+01        3.6245E+00
        1.0585E-04        0.0000E+00        2.7266E+01        3.6499E+00
        1.0086E-04        0.0000E+00        1.9630E+01        3.7440E+00
        9.6215E-05        0.0000E+00        1.7452E+01        3.6957E+00
        9.1884E-05        0.0000E+00        1.5269E+01        4.6793E+00
        8.7838E-05        0.0000E+00        1.6886E+01        5.6254E+00
        8.4054E-05        0.0000E+00        2.2386E+01        4.0523E+00
        8.0510E-05        0.0000E+00        1.5962E+01        3.7808E+00
        7.7184E-05        0.0000E+00        1.8985E+01        3.8020E+00
        7.4061E-05        0.0000E+00        9.6328E+00        3.8341E+00
        7.1124E-05        0.0000E+00        1.5287E+01        3.8683E+00
        6.8358E-05        0.0000E+00        1.7192E+01        4.0071E+00
        6.5750E-05        0.0000E+00        1.4206E+01        4.1900E+00
        6.3289E-05        0.0000E+00        2.2473E+01        3.9906E+00
        6.0963E-05        0.0000E+00        1.5417E+01        3.9539E+00
        5.8763E-05        0.0000E+00        1.2008E+01        3.9879E+00
        5.6680E-05        0.0000E+00        8.6594E+00        4.0078E+00
        5.4706E-05        0.0000E+00        1.5460E+01        4.0306E+00
        5.2834E-05        0.0000E+00        1.2774E+01        4.0534E+00
        5.1056E-05        0.0000E+00        1.4984E+01        4.0788E+00
        4.9366E-05        0.0000E+00        1.1179E+01        4.1031E+00
        4.7758E-05        0.0000E+00        1.0994E+01        4.1252E+00
        4.6228E-05        0.0000E+00        1.0239E+01        4.1472E+00
        4.4771E-05        0.0000E+00        1.3327E+01        4.1675E+00
        4.3381E-05        0.0000E+00        1.1293E+01        4.1969E+00
        4.2055E-05        0.0000E+00        7.2454E+00        4.2207E+00
        4.0788E-05        0.0000E+00        1.9221E+01        4.2494E+00
        3.9579E-05        0.0000E+00        1.1604E+01        4.2674E+00
        3.8422E-05        0.0000E+00        9.8874E+00        4.2896E+00
        3.7315E-05        0.0000E+00        4.2762E+00        4.3192E+00
        3.6255E-05        0.0000E+00        1.0273E+01        4.3340E+00
        3.5240E-05        0.0000E+00        1.3352E+01        4.3610E+00
        3.4267E-05        0.0000E+00        1.2784E+01        4.3832E+00
        3.3334E-05        0.0000E+00        2.1630E+01        4.3991E+00
        3.2438E-05        0.0000E+00        1.4342E+01        4.4229E+00
        3.1578E-05        0.0000E+00        1.0026E+01        4.4462E+00
        3.0751E-05        0.0000E+00        1.5167E+01        4.4698E+00
        2.9957E-05        0.0000E+00        2.0414E+01        4.4954E+00
        2.9193E-05        0.0000E+00        1.1963E+01        4.5257E+00
        2.8458E-05        0.0000E+00        1.5267E+01        4.5647E+00
        2.7750E-05        0.0000E+00        1.2990E+01        5.3212E+00
        2.7069E-05        0.0000E+00       -1.0036E-01        4.6619E+00
        2.6412E-05        0.0000E+00        1.5650E+01        4.6052E+00
        2.5779E-05        0.0000E+00        9.4178E+00        4.6253E+00
        2.5168E-05        0.0000E+00        1.0275E+01        4.6386E+00
        2.4579E-05        0.0000E+00        1.1217E+01        4.6694E+00
        2.4010E-05        0.0000E+00        1.2332E+01        4.6885E+00
        2.3461E-05        0.0000E+00        1.4158E+01        4.7099E+00
        2.2930E-05        0.0000E+00        1.4494E+01        4.7252E+00
        2.2417E-05        0.0000E+00        1.1671E+01        4.7480E+00
        2.1921E-05        0.0000E+00        2.0227E+01        4.7721E+00
        2.1442E-05        0.0000E+00        5.7058E+00        4.7822E+00
        2.0978E-05        0.0000E+00        1.3711E+01        4.8135E+00
        2.0529E-05        0.0000E+00        6.0914E+00        4.8351E+00
        2.0094E-05        0.0000E+00        9.6829E+00        4.8617E+00
        1.9673E-05        0.0000E+00        2.3055E+01        4.8724E+00
        1.9265E-05        0.0000E+00        1.9492E+01        4.9017E+00
        1.8869E-05        0.0000E+00        2.3657E+01        4.9388E+00
        1.8486E-05        0.0000E+00        2.0635E+01        4.9989E+00
        1.8114E-05        0.0000E+00        7.7252E+00        4.9743E+00
        1.7753E-05        0.0000E+00        1.5049E+01        4.9729E+00
        1.7403E-05        0.0000E+00        1.4289E+01        4.9908E+00
        1.7063E-05        0.0000E+00        9.7081E+00        5.0067E+00
        1.6733E-05        0.0000E+00        1.6020E+01        5.0305E+00
        1.6413E-05        0.0000E+00        2.5322E+00        5.0585E+00
        1.6102E-05        0.0000E+00        1.2788E+01        5.0778E+00
        1.5799E-05        0.0000E+00        6.5355E+00        5.0904E+00
        1.5505E-05        0.0000E+00        1.4044E+01        5.1145E+00
        1.5219E-05        0.0000E+00        1.3309E+01        5.1259E+00
        1.4941E-05        0.0000E+00        6.9365E+00        5.1354E+00
        1.4670E-05        0.0000E+00        6.5063E+00        5.1669E+00
        1.4407E-05        0.0000E+00        1.5100E+01        5.1829E+00
        1.4151E-05        0.0000E+00        5.2301E+00        5.2263E+00
        1.3901E-05        0.0000E+00        1.7804E+01        5.2275E+00
        1.3658E-05        0.0000E+00        1.0456E+01        5.2529E+00
        1.3421E-05        0.0000E+00        7.4227E+00        5.2705E+00
        1.3191E-05        0.0000E+00        1.6254E+01        5.2914E+00
        1.2966E-05        0.0000E+00        1.3816E+01        5.2997E+00
        1.2747E-05        0.0000E+00        9.2435E+00        5.3265E+00
        1.2534E-05        0.0000E+00        1.3229E+01        5.3511E+00
        1.2326E-05        0.0000E+00        1.9614E+01        5.3638E+00
        1.2123E-05        0.0000E+00        1.6276E+01        5.3910E+00
        1.1925E-05        0.0000E+00        1.7675E+01        5.4131E+00
        1.1731E-05        0.0000E+00        2.0400E+01        5.4277E+00
        1.1543E-05        0.0000E+00        1.1566E+01        5.4443E+00
        1.1359E-05        0.0000E+00        1.1473E+01        5.4713E+00
        1.1179E-05        0.0000E+00        9.4145E+00        5.4828E+00
        1.1004E-05        0.0000E+00        1.8663E+01        5.5178E+00
        1.0832E-05        0.0000E+00        1.9376E+01        5.5192E+00
        1.0665E-05        0.0000E+00        1.0217E+01        5.5296E+00
        1.0501E-05        0.0000E+00        1.6429E+01        5.5602E+00
        1.0341E-05        0.0000E+00        1.7471E+01        5.5687E+00
        1.0185E-05        0.0000E+00        2.2423E+01        5.5965E+00
        1.0033E-05        0.0000E+00        1.4414E+01        5.6112E+00
        9.8833E-06        0.0000E+00        2.2241E+01        5.6293E+00
        9.7374E-06        0.0000E+00        1.5607E+01        5.6670E+00
        9.5946E-06        0.0000E+00        5.8149E+00        5.6743E+00
        9.4550E-06        0.0000E+00        1.6139E+01        5.6723E+00
        9.3184E-06        0.0000E+00        1.3433E+01        5.7201E+00
        9.1847E-06        0.0000E+00        1.3070E+01        5.7285E+00
        9.0539E-06        0.0000E+00        1.2320E+01        5.7455E+00
        8.9259E-06        0.0000E+00       -8.2545E-01        5.7771E+00
        8.8005E-06        0.0000E+00        1.1829E+01        5.7810E+00
        8.6778E-06        0.0000E+00        4.0402E+00        5.8097E+00
        8.5576E-06        0.0000E+00        1.8877E+01        5.8202E+00
        8.4399E-06        0.0000E+00        1.8968E+01        5.8283E+00
        8.3247E-06        0.0000E+00        1.1482E+01        5.8705E+00
        8.2117E-06        0.0000E+00        2.1106E+01        5.8764E+00
        8.1011E-06        0.0000E+00        9.7500E+00        5.8960E+00
        7.9926E-06        0.0000E+00        1.4946E+01        5.9211E+00
        7.8864E-06        0.0000E+00        1.9906E+01        5.9296E+00
        7.7822E-06        0.0000E+00        1.4788E+01        5.9439E+00
        7.6801E-06        0.0000E+00        1.1452E+01        5.9662E+00
        7.5800E-06        0.0000E+00       -3.6883E+00        5.9797E+00
        7.4818E-06        0.0000E+00        1.3348E+01        6.0185E+00
        7.3855E-06        0.0000E+00        1.2198E+01        6.0272E+00
        7.2911E-06        0.0000E+00        1.2350E+01        6.0361E+00
        7.1985E-06        0.0000E+00        7.2227E+00        6.0481E+00
        7.1076E-06        0.0000E+00        1.1662E+01        6.0629E+00
        7.0184E-06        0.0000E+00        1.5059E+01        6.0912E+00
        6.9309E-06        0.0000E+00        5.6036E+00        6.1050E+00
        6.8451E-06        0.0000E+00        1.1999E+01        6.1317E+00
        6.7608E-06        0.0000E+00       -2.9308E+00        6.1482E+00
        6.6781E-06        0.0000E+00        2.0391E+01        6.1826E+00
        6.5968E-06        0.0000E+00        9.2022E+00        6.1857E+00
        6.5171E-06        0.0000E+00        5.3256E+00        6.2022E+00
        6.4388E-06        0.0000E+00        1.6997E+01        6.2243E+00
        6.3618E-06        0.0000E+00        1.4979E+01        6.2406E+00
        6.2863E-06        0.0000E+00        1.8006E+01        6.2670E+00
        6.2121E-06        0.0000E+00        1.7090E+01        6.2687E+00
        6.1392E-06        0.0000E+00       -5.2417E+00        6.2879E+00
        6.0676E-06        0.0000E+00        1.3003E+01        6.2883E+00
        5.9972E-06        0.0000E+00        1.6330E+01        6.3318E+00
        5.9280E-06        0.0000E+00        1.0498E+01        6.3456E+00
        5.8600E-06        0.0000E+00        1.7953E+01        6.3627E+00
        5.7932E-06        0.0000E+00        2.1615E+01        6.3774E+00
        5.7276E-06        0.0000E+00        1.4501E+01        6.4017E+00
        5.6630E-06        0.0000E+00        1.4996E+00        6.4285E+00
        5.5995E-06        0.0000E+00        1.9820E+01        6.4300E+00
        5.5371E-06        0.0000E+00        1.3935E+01        6.4387E+00
        5.4757E-06        0.0000E+00        2.2890E+01        6.4610E+00
        5.4154E-06        0.0000E+00        1.8838E+01        6.4818E+00
        5.3560E-06        0.0000E+00        1.0209E+01        6.5174E+00
        5.2976E-06        0.0000E+00        1.3815E+01        6.5644E+00
        5.2401E-06        0.0000E+00        2.8016E+01        6.5932E+00
        5.1836E-06        0.0000E+00        1.2984E+01        6.6218E+00
        5.1280E-06        0.0000E+00        1.1930E+01        6.6087E+00
        5.0733E-06        0.0000E+00        6.3167E+00        6.6201E+00
        5.0194E-06        0.0000E+00        1.4556E+01        6.6173E+00
        4.9665E-06        0.0000E+00        1.4159E+01        6.6391E+00
        4.9143E-06        0.0000E+00        1.9693E+01        6.6502E+00
        4.8629E-06        0.0000E+00        2.2059E+01        6.6608E+00
        4.8124E-06        0.0000E+00        2.3880E+00        6.6652E+00
        4.7626E-06        0.0000E+00        1.6335E+01        6.6928E+00
        4.7137E-06        0.0000E+00        1.6454E+01        6.7262E+00
        4.6654E-06        0.0000E+00        1.0173E+01        6.7393E+00
        4.6396E-06        0.0000E+00       -1.1306E+01        2.3404E+01
        4.6356E-06        0.0000E+00       -1.7856E+01        2.3190E+01
        4.6317E-06        0.0000E+00        5.3505E+01        2.3418E+01
        4.6277E-06        0.0000E+00        4.9779E+01        2.3345E+01
        4.6238E-06        0.0000E+00        2.5007E+01        2.3204E+01
        4.6198E-06        0.0000E+00        5.0746E+00        2.3600E+01
        4.6159E-06        0.0000E+00       -2.8420E+00        2.3381E+01
        4.6120E-06        0.0000E+00       -2.0733E+01        2.3533E+01
        4.6081E-06        0.0000E+00        3.9505E+01        2.3345E+01
        4.6042E-06        0.0000E+00        2.5257E+00        2.3435E+01
        4.6003E-06        0.0000E+00        5.8172E+01        2.3265E+01
        4.5963E-06        0.0000E+00        9.6308E+00        2.3364E+01
        4.5925E-06        0.0000E+00        5.2501E+01        2.3272E+01
        4.5886E-06        0.0000E+00        8.6151E+01        2.3568E+01
        4.5847E-06        0.0000E+00        4.5973E+01        2.3533E+01
        4.5808E-06        0.0000E+00        4.2808E+01        2.3526E+01
        4.5769E-06        0.0000E+00        1.1429E+00        2.3412E+01
        4.5730E-06        0.0000E+00        3.0660E+01        2.3196E+01
        4.5692E-06        0.0000E+00        2.6340E+01        2.3414E+01
        4.5653E-06        0.0000E+00        1.0451E+01        2.3434E+01
        4.5614E-06        0.0000E+00        3.7651E+01        2.3460E+01
        4.5576E-06        0.0000E+00        1.6481E+01        2.3420E+01
        4.5537E-06        0.0000E+00        9.3857E+00        2.3491E+01
        4.5499E-06        0.0000E+00        1.6991E+01        2.3608E+01
        4.5461E-06        0.0000E+00       -3.3182E+01        2.3322E+01
        4.5422E-06        0.0000E+00       -2.5853E+01        2.3482E+01
        4.5384E-06        0.0000E+00        2.3539E+01        2.3680E+01
        4.5346E-06        0.0000E+00        1.4171E+01        2.3171E+01
        4.5307E-06        0.0000E+00        4.7793E-01        2.3572E+01
        4.5269E-06        0.0000E+00       -4.3804E+01        2.3577E+01
        4.5231E-06        0.0000E+00       -1.0866E+01        2.3340E+01
        4.5193E-06        0.0000E+00        1.3124E+01        2.3582E+01
        4.5155E-06        0.0000E+00       -6.9590E+00        2.3618E+01
        4.5117E-06        0.0000E+00       -2.1724E+01        2.3423E+01
        4.5079E-06        0.0000E+00        4.2896E-01        2.3310E+01
        4.5041E-06        0.0000E+00        6.9868E+00        2.3488E+01
        4.4797E-06        0.0000E+00        1.2012E+01        6.7981E+00
        4.4350E-06        0.0000E+00        9.1933E+00        6.8150E+00
        4.3909E-06        0.0000E+00        1.2751E+01        6.8473E+00
        4.3476E-06        0.0000E+00        5.1416E+00        6.8344E+00
        4.3048E-06        0.0000E+00        1.5814E+01        6.8604E+00
        4.2819E-06        0.0000E+00        2.6539E+01        2.3634E+01
        4.2784E-06        0.0000E+00        7.5401E+01        2.3746E+01
        4.2749E-06        0.0000E+00       -9.0068E+00        2.3729E+01
        4.2714E-06        0.0000E+00        2.0792E+01        2.3783E+01
        4.2679E-06        0.0000E+00        1.0042E+01        2.3692E+01
        4.2644E-06        0.0000E+00       -3.5422E+01        2.3964E+01
        4.2609E-06        0.0000E+00        8.0238E+00        2.3848E+01
        4.2574E-06        0.0000E+00        7.2712E+00        2.3851E+01
        4.2540E-06        0.0000E+00        6.1380E+01        2.3676E+01
        4.2505E-06        0.0000E+00       -1.3450E+00        2.3907E+01
        4.2470E-06        0.0000E+00        4.4846E+00        2.3993E+01
        4.2436E-06        0.0000E+00        8.1788E+00        2.4042E+01
        4.2401E-06        0.0000E+00        3.5732E+01        2.3944E+01
        4.2367E-06        0.0000E+00        3.2716E+01        2.3957E+01
        4.2332E-06        0.0000E+00        1.1372E+01        2.3941E+01
        4.2298E-06        0.0000E+00        3.0699E+01        2.3813E+01
        4.2263E-06        0.0000E+00        4.8027E+01        2.3938E+01
        4.2229E-06        0.0000E+00        6.2668E+01        2.3878E+01
        4.2195E-06        0.0000E+00        5.3418E+01        2.3872E+01
        4.2160E-06        0.0000E+00        6.6195E+01        2.3971E+01
        4.2126E-06        0.0000E+00        1.5709E+01        2.3881E+01
        4.2092E-06        0.0000E+00       -6.2436E+00        2.3870E+01
        4.2058E-06        0.0000E+00        1.5363E+01        2.3950E+01
        4.2023E-06        0.0000E+00        1.0683E+01        2.3888E+01
        4.1989E-06        0.0000E+00       -3.4069E+01        2.3709E+01
        4.1955E-06        0.0000E+00        1.4414E+01        2.4092E+01
        4.1921E-06        0.0000E+00        3.9443E+01        2.3907E+01
        4.1887E-06        0.0000E+00        1.2292E+01        2.3812E+01
        4.1853E-06        0.0000E+00        2.0155E+01        2.3919E+01
        4.1820E-06        0.0000E+00        2.9195E+01        2.3742E+01
        4.1786E-06        0.0000E+00       -1.6768E+01        2.4008E+01
        4.1752E-06        0.0000E+00       -4.8013E+01        2.3889E+01
        4.1718E-06        0.0000E+00        3.4172E+01        2.3868E+01
        4.1685E-06        0.0000E+00        5.4870E+01        2.4104E+01
        4.1651E-06        0.0000E+00        3.7059E+01        2.4113E+01
        4.1617E-06        0.0000E+00       -2.5993E+01        2.4039E+01
        4.1584E-06        0.0000E+00       -2.2728E+01        2.3987E+01
        4.1550E-06        0.0000E+00        3.8117E+01        2.3790E+01
        4.1517E-06        0.0000E+00        2.7418E+01        2.3945E+01
        4.1483E-06        0.0000E+00       -1.8777E+00        2.4005E+01
        4.1450E-06        0.0000E+00        9.5779E+00        2.3805E+01
        4.1416E-06        0.0000E+00       -1.7223E+00        2.3950E+01
        4.1383E-06        0.0000E+00        3.7244E+01        2.3991E+01
        4.1350E-06        0.0000E+00        1.1977E+01        2.4026E+01
        4.1316E-06        0.0000E+00        1.9697E+01        2.3873E+01
        4.1283E-06        0.0000E+00        2.5765E+00        2.4047E+01
        4.1250E-06        0.0000E+00        5.5041E+01        2.4061E+01
        4.1217E-06        0.0000E+00        4.9698E-01        2.4068E+01
        4.1184E-06        0.0000E+00        8.0325E+01        2.4107E+01
        4.1151E-06        0.0000E+00        1.5924E+01        2.3897E+01
        4.1118E-06        0.0000E+00       -2.5539E+01        2.4160E+01
        4.1085E-06        0.0000E+00        1.2741E+00        2.4275E+01
        4.1052E-06        0.0000E+00       -1.8645E+01        2.4288E+01
        4.1019E-06        0.0000E+00       -1.2023E+01        2.3946E+01
        4.0986E-06        0.0000E+00       -1.1502E+01        2.3941E+01
        4.0953E-06        0.0000E+00        2.0532E+01        2.4069E+01
        4.0920E-06        0.0000E+00       -1.5517E+01        2.4009E+01
        4.0888E-06        0.0000E+00        2.3543E+01        2.4144E+01
        4.0855E-06        0.0000E+00        2.9128E+00        2.4009E+01
        4.0822E-06        0.0000E+00        4.4734E+01        2.4135E+01
        4.0790E-06        0.0000E+00        5.1027E+01        2.4086E+01
        4.0757E-06        0.0000E+00       -1.9719E+01        2.4052E+01
        4.0724E-06        0.0000E+00        4.5050E+01        2.4182E+01
        4.0692E-06        0.0000E+00        3.0703E+01        2.4152E+01
        4.0659E-06        0.0000E+00        5.4644E+01        2.4115E+01
        4.0627E-06        0.0000E+00       -5.2071E+00        2.4110E+01
        4.0595E-06        0.0000E+00        3.4741E+01        2.4033E+01
        4.0562E-06        0.0000E+00        6.3845E+00        2.4170E+01
        4.0530E-06        0.0000E+00        2.1612E+01        2.3983E+01
        4.0498E-06        0.0000E+00        2.3551E+01        2.4119E+01
        4.0465E-06        0.0000E+00       -1.9574E+01        2.4013E+01
        4.0433E-06        0.0000E+00        2.2267E+01        2.4133E+01
        4.0401E-06        0.0000E+00        1.9985E+01        2.4116E+01
        4.0369E-06        0.0000E+00        1.5970E+01        2.4283E+01
        4.0337E-06        0.0000E+00        7.7038E+01        2.4380E+01
        4.0305E-06        0.0000E+00        5.2842E+01        2.4383E+01
        4.0273E-06        0.0000E+00        1.0551E+02        2.4151E+01
        4.0241E-06        0.0000E+00        5.8807E-01        2.4238E+01
        4.0209E-06        0.0000E+00        2.1932E+01        2.4256E+01
        4.0177E-06        0.0000E+00       -4.9897E+00        2.4031E+01
        4.0145E-06        0.0000E+00        4.7650E+01        2.4227E+01
        4.0113E-06        0.0000E+00        3.1946E+01        2.4156E+01
        4.0082E-06        0.0000E+00        3.1988E+01        2.4409E+01
        4.0050E-06        0.0000E+00       -4.1945E+00        2.4102E+01
        4.0018E-06        0.0000E+00        1.1968E+01        2.4184E+01
        3.9813E-06        0.0000E+00        1.4384E+01        7.0049E+00
        3.9438E-06        0.0000E+00        1.7047E+01        7.0112E+00
        3.9069E-06        0.0000E+00        5.7832E+00        7.0381E+00
        3.8705E-06        0.0000E+00        2.9722E+01        7.0388E+00
        3.8346E-06        0.0000E+00        3.1755E+01        7.0564E+00
        3.7991E-06        0.0000E+00        2.0835E+01        7.1029E+00
        3.7642E-06        0.0000E+00        1.6692E+01        7.0909E+00
        3.7297E-06        0.0000E+00        1.2097E+01        7.1149E+00
        3.6958E-06        0.0000E+00        1.8393E+01        7.1217E+00
        3.6622E-06        0.0000E+00        5.8493E+00        7.1499E+00
        3.6292E-06        0.0000E+00        2.5155E+01        7.1660E+00
        3.5966E-06        0.0000E+00        2.3115E+01        7.1827E+00
        3.5644E-06        0.0000E+00        1.1051E+01        7.2073E+00
        3.5326E-06        0.0000E+00        1.4016E+01        7.2335E+00
        3.5013E-06        0.0000E+00        2.1609E+01        7.2373E+00
        3.4704E-06        0.0000E+00        5.6076E+00        7.2639E+00
        3.4399E-06        0.0000E+00        1.8145E+01        7.2652E+00
        3.4098E-06        0.0000E+00        2.3704E+01        7.2984E+00
        3.3751E-06        0.0000E+00        1.8111E+01        6.1623E+00
        3.3194E-06        0.0000E+00        1.3084E+01        5.1915E+00
        3.2627E-06        0.0000E+00        1.1163E+01        5.2080E+00
        3.2074E-06        0.0000E+00        1.7123E+01        5.2377E+00
        3.1535E-06        0.0000E+00        1.9271E+01        5.2525E+00
        3.1010E-06        0.0000E+00        1.7024E+01        5.2839E+00
        3.0498E-06        0.0000E+00        1.4557E+01        5.3065E+00
        2.9998E-06        0.0000E+00        1.7124E+01        5.3368E+00
        2.9510E-06        0.0000E+00        1.8946E+01        5.3552E+00
        2.9034E-06        0.0000E+00        1.3243E+01        5.3708E+00
        2.8570E-06        0.0000E+00        1.5407E+01        5.3958E+00
        2.8117E-06        0.0000E+00        1.5952E+01        5.4404E+00
        2.7674E-06        0.0000E+00        1.4256E+01        5.4514E+00
        2.7242E-06        0.0000E+00        1.6331E+01        5.4605E+00
        2.6820E-06        0.0000E+00        1.4390E+01        5.4957E+00
        2.6407E-06        0.0000E+00        1.8385E+01        5.5230E+00
        2.6004E-06        0.0000E+00        1.6207E+01        5.5201E+00
        2.5610E-06        0.0000E+00        1.2784E+01        5.5705E+00
        2.5225E-06        0.0000E+00        8.5245E+00        5.5994E+00
        2.4849E-06        0.0000E+00        1.4091E+01        5.6060E+00
        2.4481E-06        0.0000E+00        1.4458E+01        5.6235E+00
        2.4121E-06        0.0000E+00        8.6658E+00        5.6527E+00
        2.3769E-06        0.0000E+00        1.5849E+01        5.6691E+00
        2.3425E-06        0.0000E+00        9.5190E+00        5.6998E+00
        2.3088E-06        0.0000E+00        2.5369E+01        5.7202E+00
        2.2758E-06        0.0000E+00        1.0671E+01        5.7463E+00
        2.2435E-06        0.0000E+00        1.7708E+01        5.7696E+00
        2.2119E-06        0.0000E+00        1.4839E+01        5.7970E+00
        2.1810E-06        0.0000E+00        8.1347E+00        5.8175E+00
        2.1507E-06        0.0000E+00        1.4187E+01        5.8309E+00
        2.1211E-06        0.0000E+00        2.0787E+01        5.8560E+00
        2.0920E-06        0.0000E+00        2.9560E+01        5.8888E+00
        2.0636E-06        0.0000E+00        1.8600E+01        5.9004E+00
        2.0357E-06        0.0000E+00        1.7956E+01        5.9286E+00
        2.0084E-06        0.0000E+00        2.3394E+01        5.9449E+00
        1.9816E-06        0.0000E+00        2.1231E+01        5.9899E+00
        1.9554E-06        0.0000E+00        1.6270E+01        6.0067E+00
        1.9297E-06        0.0000E+00        7.4817E+00        6.0142E+00
        1.9044E-06        0.0000E+00        1.7694E+01        6.0477E+00
        1.8797E-06        0.0000E+00        1.9496E+01        6.0580E+00
        1.8555E-06        0.0000E+00        1.8604E+01        6.1014E+00
        1.8317E-06        0.0000E+00        2.4185E+01        6.1037E+00
        1.8084E-06        0.0000E+00        2.2875E+01        6.1174E+00
        1.7855E-06        0.0000E+00        1.4471E+01        6.1740E+00
        1.7630E-06        0.0000E+00        7.3186E+00        6.1901E+00
        1.7410E-06        0.0000E+00        3.2743E+01        6.2041E+00
        1.7194E-06        0.0000E+00        2.0402E+01        6.2351E+00
        1.6982E-06        0.0000E+00        1.9213E+01        6.2378E+00
        1.6773E-06        0.0000E+00        2.3155E+01        6.2690E+00
        1.6569E-06        0.0000E+00        2.2000E+01        6.2960E+00
        1.6368E-06        0.0000E+00        1.5917E+01        6.3211E+00
        1.6171E-06        0.0000E+00        2.0675E+01        6.3563E+00
        1.5977E-06        0.0000E+00        2.2474E+01        6.3833E+00
        1.5787E-06        0.0000E+00        1.9069E+01        6.3718E+00
        1.5600E-06        0.0000E+00        2.3382E+01        6.4194E+00
        1.5417E-06        0.0000E+00        8.1274E+00        6.4281E+00
        1.5237E-06        0.0000E+00        2.7461E+01        6.4444E+00
        1.5059E-06        0.0000E+00        1.5004E+01        6.4709E+00
        1.4885E-06        0.0000E+00        2.0004E+01        6.5081E+00
        1.4714E-06        0.0000E+00        2.5861E+01        6.5346E+00
        1.4546E-06        0.0000E+00        2.5460E+01        6.5426E+00
        1.4381E-06        0.0000E+00        2.1731E+01        6.5839E+00
        1.4218E-06        0.0000E+00        7.7622E+00        6.5963E+00
        1.4059E-06        0.0000E+00        1.2696E+01        6.6050E+00
        1.3902E-06        0.0000E+00        1.4259E+01        6.6460E+00
        1.3747E-06        0.0000E+00        2.8699E+01        6.6667E+00
        1.3595E-06        0.0000E+00        1.9558E+01        6.6775E+00
        1.3446E-06        0.0000E+00        2.9234E+01        6.6983E+00
        1.3299E-06        0.0000E+00        1.2924E+01        6.7504E+00
        1.3155E-06        0.0000E+00        2.5210E+01        6.7576E+00
        1.3012E-06        0.0000E+00        2.3731E+01        6.7720E+00
        1.2873E-06        0.0000E+00        1.6853E+01        6.8147E+00
        1.2735E-06        0.0000E+00        1.0599E+01        6.8082E+00
        1.2599E-06        0.0000E+00        2.3641E+01        6.8400E+00
        1.2466E-06        0.0000E+00        1.1363E+01        6.8821E+00
        1.2335E-06        0.0000E+00        2.7631E+01        6.8865E+00
        1.2206E-06        0.0000E+00        1.8167E+01        6.9124E+00
        1.2079E-06        0.0000E+00        1.5143E+01        6.9299E+00
        1.1954E-06        0.0000E+00        3.8955E+01        6.9775E+00
        1.1830E-06        0.0000E+00        2.2438E+01        6.9858E+00
        1.1709E-06        0.0000E+00        1.2334E+01        7.0135E+00
        1.1590E-06        0.0000E+00        4.0070E+01        7.0326E+00
        1.1472E-06        0.0000E+00        1.7084E+01        7.0695E+00
        1.1353E-06        0.0000E+00        2.4543E+01        6.6017E+00
        1.1158E-06        0.0000E+00        1.7915E+01        5.0366E+00
        1.0937E-06        0.0000E+00        2.5137E+01        5.0867E+00
        1.0723E-06        0.0000E+00        2.7739E+01        5.1000E+00
        1.0515E-06        0.0000E+00        2.0095E+01        5.1576E+00
        1.0313E-06        0.0000E+00        1.8101E+01        5.1884E+00
        1.0117E-06        0.0000E+00        2.5312E+01        5.2192E+00
        9.9264E-07        0.0000E+00        2.4959E+01        5.2633E+00
        9.7411E-07        0.0000E+00        2.0477E+01        5.2929E+00
        9.5610E-07        0.0000E+00        1.8527E+01        5.3267E+00
        9.3858E-07        0.0000E+00        2.7482E+01        5.3669E+00
        9.2154E-07        0.0000E+00        2.5071E+01        5.4074E+00
        9.0496E-07        0.0000E+00        1.5105E+01        5.4325E+00
        8.8882E-07        0.0000E+00        1.9363E+01        5.4731E+00
        8.7311E-07        0.0000E+00        2.6292E+01        5.5220E+00
        8.5781E-07        0.0000E+00        1.5253E+01        5.5401E+00
        8.4291E-07        0.0000E+00        1.2665E+01        5.5906E+00
        8.2840E-07        0.0000E+00        1.2969E+01        5.6437E+00
        8.1425E-07        0.0000E+00        2.5854E+01        5.6963E+00
        8.0047E-07        0.0000E+00        1.5703E+01        5.7236E+00
        7.8703E-07        0.0000E+00        2.0439E+01        5.7733E+00
        7.7393E-07        0.0000E+00        1.0896E+01        5.8162E+00
        7.6115E-07        0.0000E+00        2.9257E+01        5.8574E+00
        7.4869E-07        0.0000E+00        1.8810E+01        5.9189E+00
        7.3653E-07        0.0000E+00        3.2773E+01        5.9564E+00
        7.2467E-07        0.0000E+00        1.6833E+01        6.0205E+00
        7.1309E-07        0.0000E+00        2.5629E+01        6.0773E+00
        7.0178E-07        0.0000E+00        3.3941E+01        6.1206E+00
        6.9074E-07        0.0000E+00        2.2613E+01        6.1819E+00
        6.7996E-07        0.0000E+00        2.5117E+01        6.2268E+00
        6.6943E-07        0.0000E+00        2.2277E+01        6.2866E+00
        6.5914E-07        0.0000E+00        3.3809E+01        6.3485E+00
        6.4909E-07        0.0000E+00        1.1175E+01        6.3928E+00
        6.3927E-07        0.0000E+00        1.8304E+01        6.4737E+00
        6.2967E-07        0.0000E+00        2.5051E+01        6.5184E+00
        6.2028E-07        0.0000E+00        9.2920E+00        6.5955E+00
        6.1110E-07        0.0000E+00        2.1210E+01        6.6493E+00
        6.0212E-07        0.0000E+00        2.2300E+01        6.7367E+00
        5.9334E-07        0.0000E+00        1.6946E+01        6.7938E+00
        5.8475E-07        0.0000E+00        1.4981E+01        6.8567E+00
        5.7635E-07        0.0000E+00        2.6476E+01        6.9846E+00
        5.6812E-07        0.0000E+00        1.7653E+01        7.0217E+00
        5.6007E-07        0.0000E+00        3.3913E+01        7.0989E+00
        5.5219E-07        0.0000E+00        3.3609E+01        7.1973E+00
        5.4448E-07        0.0000E+00        2.5412E+01        7.2972E+00
        5.3692E-07        0.0000E+00        4.0766E+01        7.3587E+00
        5.2952E-07        0.0000E+00        2.7499E+01        7.4683E+00
        5.2228E-07        0.0000E+00        2.2739E+01        7.5655E+00
        5.1518E-07        0.0000E+00        2.3681E+01        7.6487E+00
        5.0822E-07        0.0000E+00        3.0835E+01        7.7915E+00
        5.0141E-07        0.0000E+00        1.5000E+01        7.8706E+00
        4.9473E-07        0.0000E+00        2.9328E+01        8.0026E+00
        4.8818E-07        0.0000E+00        2.0167E+01        8.1421E+00
        4.8177E-07        0.0000E+00        3.4032E+01        8.2608E+00
        4.7548E-07        0.0000E+00        2.7812E+01        8.3943E+00
        4.6931E-07        0.0000E+00        3.1145E+01        8.5635E+00
        4.6326E-07        0.0000E+00        1.5742E+01        8.7238E+00
        4.5732E-07        0.0000E+00        1.8136E+01        8.9137E+00
        4.5150E-07        0.0000E+00        3.1582E+01        9.0583E+00
        4.4579E-07        0.0000E+00        3.6136E+01        9.2785E+00
        4.4019E-07        0.0000E+00        2.4407E+01        9.4462E+00
        4.3469E-07        0.0000E+00        3.1465E+01        9.6535E+00
        4.2930E-07        0.0000E+00        2.0259E+01        9.9175E+00
        4.2400E-07        0.0000E+00        4.4583E+01        1.0153E+01
        4.1881E-07        0.0000E+00        2.3288E+01        1.0342E+01
        4.1370E-07        0.0000E+00        1.8494E+01        1.0682E+01
        4.0869E-07        0.0000E+00        2.2682E-01        1.0965E+01
        4.0377E-07        0.0000E+00        2.4513E+01        1.1283E+01
        3.9894E-07        0.0000E+00        5.0719E+01        1.1573E+01
        3.9420E-07        0.0000E+00        2.4318E+01        1.1965E+01
        3.8954E-07        0.0000E+00        1.7541E+01        1.2284E+01
        3.8496E-07        0.0000E+00        3.4158E+01        1.2706E+01
        3.8046E-07        0.0000E+00        3.3815E+01        1.3181E+01
        3.7604E-07        0.0000E+00        2.5393E+01        1.3631E+01
        3.7169E-07        0.0000E+00        3.8048E+00        1.4088E+01
        3.6743E-07        0.0000E+00        2.8229E+01        1.4752E+01
        3.6323E-07        0.0000E+00        4.1239E+01        1.5263E+01
        3.5911E-07        0.0000E+00        3.4423E+01        1.5900E+01
        3.5505E-07        0.0000E+00        1.8440E+01        1.6539E+01
        3.5107E-07        0.0000E+00        1.4267E+01        1.7383E+01
        3.4715E-07        0.0000E+00        4.5833E+01        1.8120E+01
        3.4329E-07        0.0000E+00        2.2287E+01        1.9193E+01
        3.3950E-07        0.0000E+00        8.3042E+01        2.0167E+01
        3.3577E-07        0.0000E+00        3.2041E+01        2.1183E+01
        3.3211E-07        0.0000E+00        4.8505E+01        2.2311E+01
        3.2850E-07        0.0000E+00       -1.3950E+01        2.3652E+01
        3.2495E-07        0.0000E+00        1.2853E+01        2.4954E+01
        3.2146E-07        0.0000E+00        3.9459E+01        2.6370E+01
        3.1803E-07        0.0000E+00        6.4470E+01        2.7715E+01
        3.1465E-07        0.0000E+00        4.2003E+01        3.0098E+01
        3.1132E-07        0.0000E+00        7.3777E+01        3.1500E+01
        3.0804E-07        0.0000E+00        3.3685E+01        3.4449E+01
        3.0482E-07        0.0000E+00       -1.4102E+00        3.5427E+01
        3.0165E-07        0.0000E+00       -1.0514E+01        3.7353E+01
        2.9852E-07        0.0000E+00        1.1740E+02        4.1114E+01
        2.9545E-07        0.0000E+00        7.2412E+01        4.2201E+01
        2.9242E-07        0.0000E+00        6.0756E+01        4.5106E+01
        2.8944E-07        0.0000E+00        4.4284E+01        4.6909E+01
        2.8650E-07        0.0000E+00        4.5254E+01        4.8391E+01
        2.8361E-07        0.0000E+00        2.5544E+01        5.1436E+01
        2.8076E-07        0.0000E+00        3.0863E+01        5.1900E+01
        2.7796E-07        0.0000E+00        4.0364E+01        5.3906E+01
        2.7519E-07        0.0000E+00       -5.2823E+01        5.5600E+01
        2.7247E-07        0.0000E+00       -2.5183E+01        5.5985E+01
        2.6979E-07        0.0000E+00       -6.2413E+01        6.0722E+01
        2.6715E-07        0.0000E+00       -2.0287E+01        5.7847E+01
        2.6454E-07        0.0000E+00        1.8613E+01        6.3780E+01
        2.6198E-07        0.0000E+00        1.1094E+02        6.0074E+01
        2.5945E-07        0.0000E+00        1.0895E+01        6.1119E+01
        2.5695E-07        0.0000E+00       -2.9487E+01        6.2211E+01
        2.5450E-07        0.0000E+00       -8.1516E+01        6.4214E+01
        2.5207E-07        0.0000E+00        6.0172E+00        6.0496E+01
        2.4969E-07        0.0000E+00        1.5583E+02        6.2097E+01
        2.4733E-07        0.0000E+00       -2.6928E+01        6.0405E+01
        2.4501E-07        0.0000E+00        9.1413E+01        6.1638E+01
        2.4282E-07        0.0000E+00        1.5982E+02        6.6413E+01
